Time (s),Altitude (m),Velocity (m/s),Mass (kg),Fuel (%)
0.00,-0.06,-0.58,29995.63,99.98
0.10,-0.17,-1.16,29991.26,99.96
0.20,-0.35,-1.75,29986.89,99.93
0.30,-0.58,-2.33,29982.52,99.91
0.40,-0.87,-2.91,29978.15,99.89
0.50,-1.22,-3.49,29973.78,99.87
0.60,-1.63,-4.07,29969.41,99.85
0.70,-2.09,-4.65,29965.04,99.83
0.80,-2.62,-5.24,29960.67,99.80
0.90,-3.20,-5.82,29956.30,99.78
1.00,-3.84,-6.40,29951.93,99.76
1.10,-4.54,-6.98,29947.56,99.74
1.20,-5.29,-7.56,29943.19,99.72
1.30,-6.11,-8.14,29938.82,99.69
1.40,-6.98,-8.72,29934.45,99.67
1.50,-7.91,-9.30,29930.08,99.65
1.60,-8.90,-9.89,29925.71,99.63
1.70,-9.95,-10.47,29921.34,99.61
1.80,-11.05,-11.05,29916.97,99.58
1.90,-12.21,-11.63,29912.60,99.56
2.00,-13.44,-12.21,29908.23,99.54
2.10,-14.71,-12.79,29903.86,99.52
2.20,-16.05,-13.37,29899.49,99.50
2.30,-17.45,-13.95,29895.11,99.48
2.40,-18.90,-14.53,29890.74,99.45
2.50,-20.41,-15.11,29886.37,99.43
2.60,-21.98,-15.69,29882.00,99.41
2.70,-23.61,-16.27,29877.63,99.39
2.80,-25.29,-16.85,29873.26,99.37
2.90,-27.04,-17.43,29868.89,99.34
3.00,-28.84,-18.01,29864.52,99.32
3.10,-30.70,-18.60,29860.15,99.30
3.20,-32.62,-19.18,29855.78,99.28
3.30,-34.59,-19.76,29851.41,99.26
3.40,-36.62,-20.34,29847.04,99.24
3.50,-38.72,-20.92,29842.67,99.21
3.60,-40.87,-21.50,29838.30,99.19
3.70,-43.07,-22.07,29833.93,99.17
3.80,-45.34,-22.65,29829.56,99.15
3.90,-47.66,-23.23,29825.19,99.13
4.00,-50.04,-23.81,29820.82,99.10
4.10,-52.48,-24.39,29816.45,99.08
4.20,-54.98,-24.97,29812.08,99.06
4.30,-57.54,-25.55,29807.71,99.04
4.40,-60.15,-26.13,29803.34,99.02
4.50,-62.82,-26.71,29798.97,98.99
4.60,-65.55,-27.29,29794.60,98.97
4.70,-68.34,-27.87,29790.23,98.95
4.80,-71.18,-28.45,29785.86,98.93
4.90,-74.08,-29.03,29781.49,98.91
5.00,-77.04,-29.61,29777.12,98.89
5.10,-80.06,-30.19,29772.75,98.86
5.20,-83.14,-30.77,29768.38,98.84
5.30,-86.27,-31.34,29764.01,98.82
5.40,-89.47,-31.92,29759.64,98.80
5.50,-92.72,-32.50,29755.27,98.78
5.60,-96.02,-33.08,29750.90,98.75
5.70,-99.39,-33.66,29746.53,98.73
5.80,-102.81,-34.24,29742.16,98.71
5.90,-106.30,-34.82,29737.79,98.69
6.00,-109.84,-35.40,29733.42,98.67
6.10,-113.43,-35.97,29729.05,98.65
6.20,-117.09,-36.55,29724.68,98.62
6.30,-120.80,-37.13,29720.31,98.60
6.40,-124.57,-37.71,29715.94,98.58
6.50,-128.40,-38.29,29711.57,98.56
6.60,-132.29,-38.87,29707.20,98.54
6.70,-136.23,-39.44,29702.83,98.51
6.80,-140.23,-40.02,29698.46,98.49
6.90,-144.29,-40.60,29694.09,98.47
7.00,-148.41,-41.18,29689.71,98.45
7.10,-152.59,-41.75,29685.34,98.43
7.20,-156.82,-42.33,29680.97,98.40
7.30,-161.11,-42.91,29676.60,98.38
7.40,-165.46,-43.49,29672.23,98.36
7.50,-169.87,-44.07,29667.86,98.34
7.60,-174.33,-44.64,29663.49,98.32
7.70,-178.85,-45.22,29659.12,98.30
7.80,-183.43,-45.80,29654.75,98.27
7.90,-188.07,-46.38,29650.38,98.25
8.00,-192.77,-46.95,29646.01,98.23
8.10,-197.52,-47.53,29641.64,98.21
8.20,-202.33,-48.11,29637.27,98.19
8.30,-207.20,-48.68,29632.90,98.16
8.40,-212.12,-49.26,29628.53,98.14
8.50,-217.11,-49.84,29624.16,98.12
8.60,-222.15,-50.42,29619.79,98.10
8.70,-227.25,-50.99,29615.42,98.08
8.80,-232.41,-51.57,29611.05,98.06
8.90,-237.62,-52.15,29606.68,98.03
9.00,-242.89,-52.72,29602.31,98.01
9.10,-248.22,-53.30,29597.94,97.99
9.20,-253.61,-53.88,29593.57,97.97
9.30,-259.06,-54.45,29589.20,97.95
9.40,-264.56,-55.03,29584.83,97.92
9.50,-270.12,-55.61,29580.46,97.90
9.60,-275.74,-56.18,29576.09,97.88
9.70,-281.41,-56.76,29571.72,97.86
9.80,-287.15,-57.34,29567.35,97.84
9.90,-292.94,-57.91,29562.98,97.81
10.00,-298.79,-58.49,29558.61,97.79
10.10,-304.69,-59.06,29554.24,97.77
10.20,-310.66,-59.64,29549.87,97.75
10.30,-316.68,-60.22,29545.50,97.73
10.40,-322.76,-60.79,29541.13,97.71
10.50,-328.89,-61.37,29536.76,97.68
10.60,-335.09,-61.94,29532.39,97.66
10.70,-341.34,-62.52,29528.02,97.64
10.80,-347.65,-63.09,29523.65,97.62
10.90,-354.02,-63.67,29519.28,97.60
11.00,-360.44,-64.25,29514.91,97.57
11.10,-366.92,-64.82,29510.54,97.55
11.20,-373.46,-65.40,29506.17,97.53
11.30,-380.06,-65.97,29501.80,97.51
11.40,-386.72,-66.55,29497.43,97.49
11.50,-393.43,-67.12,29493.06,97.47
11.60,-400.20,-67.70,29488.69,97.44
11.70,-407.03,-68.27,29484.31,97.42
11.80,-413.91,-68.85,29479.94,97.40
11.90,-420.85,-69.42,29475.57,97.38
12.00,-427.85,-70.00,29471.20,97.36
12.10,-434.91,-70.57,29466.83,97.33
12.20,-442.03,-71.15,29462.46,97.31
12.30,-449.20,-71.72,29458.09,97.29
12.40,-456.43,-72.30,29453.72,97.27
12.50,-463.71,-72.87,29449.35,97.25
12.60,-471.06,-73.45,29444.98,97.22
12.70,-478.46,-74.02,29440.61,97.20
12.80,-485.92,-74.60,29436.24,97.18
12.90,-493.44,-75.17,29431.87,97.16
13.00,-501.01,-75.75,29427.50,97.14
13.10,-508.65,-76.32,29423.13,97.12
13.20,-516.33,-76.89,29418.76,97.09
13.30,-524.08,-77.47,29414.39,97.07
13.40,-531.89,-78.04,29410.02,97.05
13.50,-539.75,-78.62,29405.65,97.03
13.60,-547.67,-79.19,29401.28,97.01
13.70,-555.64,-79.77,29396.91,96.98
13.80,-563.68,-80.34,29392.54,96.96
13.90,-571.77,-80.91,29388.17,96.94
14.00,-579.92,-81.49,29383.80,96.92
14.10,-588.12,-82.06,29379.43,96.90
14.20,-596.39,-82.63,29375.06,96.88
14.30,-604.71,-83.21,29370.69,96.85
14.40,-613.09,-83.78,29366.32,96.83
14.50,-621.52,-84.36,29361.95,96.81
14.60,-630.01,-84.93,29357.58,96.79
14.70,-638.56,-85.50,29353.21,96.77
14.80,-647.17,-86.08,29348.84,96.74
14.90,-655.84,-86.65,29344.47,96.72
15.00,-664.56,-87.22,29340.10,96.70
15.10,-673.34,-87.80,29335.73,96.68
15.20,-682.18,-88.37,29331.36,96.66
15.30,-691.07,-88.94,29326.99,96.63
15.40,-700.02,-89.51,29322.62,96.61
15.50,-709.03,-90.09,29318.25,96.59
15.60,-718.10,-90.66,29313.88,96.57
15.70,-727.22,-91.23,29309.51,96.55
15.80,-736.40,-91.81,29305.14,96.53
15.90,-745.64,-92.38,29300.77,96.50
16.00,-754.93,-92.95,29296.40,96.48
16.10,-764.28,-93.52,29292.03,96.46
16.20,-773.69,-94.10,29287.66,96.44
16.30,-783.16,-94.67,29283.29,96.42
16.40,-792.69,-95.24,29278.91,96.39
16.50,-802.27,-95.81,29274.54,96.37
16.60,-811.91,-96.39,29270.17,96.35
16.70,-821.60,-96.96,29265.80,96.33
16.80,-831.35,-97.53,29261.43,96.31
16.90,-841.16,-98.10,29257.06,96.29
17.00,-851.03,-98.68,29252.69,96.26
17.10,-860.96,-99.25,29248.32,96.24
17.20,-870.94,-99.82,29243.95,96.22
17.30,-880.98,-100.39,29239.58,96.20
17.40,-891.07,-100.96,29235.21,96.18
17.50,-901.23,-101.53,29230.84,96.15
17.60,-911.44,-102.11,29226.47,96.13
17.70,-921.71,-102.68,29222.10,96.11
17.80,-932.03,-103.25,29217.73,96.09
17.90,-942.41,-103.82,29213.36,96.07
18.00,-952.85,-104.39,29208.99,96.04
18.10,-963.35,-104.96,29204.62,96.02
18.20,-973.90,-105.54,29200.25,96.00
18.30,-984.51,-106.11,29195.88,95.98
18.40,-995.18,-106.68,29191.51,95.96
18.50,-1005.91,-107.25,29187.14,95.94
18.60,-1016.69,-107.82,29182.77,95.91
18.70,-1027.53,-108.39,29178.40,95.89
18.80,-1038.42,-108.96,29174.03,95.87
18.90,-1049.38,-109.53,29169.66,95.85
19.00,-1060.39,-110.10,29165.29,95.83
19.10,-1071.46,-110.68,29160.92,95.80
19.20,-1082.58,-111.25,29156.55,95.78
19.30,-1093.76,-111.82,29152.18,95.76
19.40,-1105.00,-112.39,29147.81,95.74
19.50,-1116.30,-112.96,29143.44,95.72
19.60,-1127.65,-113.53,29139.07,95.70
19.70,-1139.06,-114.10,29134.70,95.67
19.80,-1150.53,-114.67,29130.33,95.65
19.90,-1162.05,-115.24,29125.96,95.63
20.00,-1173.63,-115.81,29121.59,95.61
20.10,-1185.27,-116.38,29117.22,95.59
20.20,-1196.97,-116.95,29112.85,95.56
20.30,-1208.72,-117.52,29108.48,95.54
20.40,-1220.53,-118.09,29104.11,95.52
20.50,-1232.39,-118.66,29099.74,95.50
20.60,-1244.32,-119.23,29095.37,95.48
20.70,-1256.30,-119.80,29091.00,95.45
20.80,-1268.33,-120.37,29086.63,95.43
20.90,-1280.43,-120.94,29082.26,95.41
21.00,-1292.58,-121.51,29077.89,95.39
21.10,-1304.79,-122.08,29073.51,95.37
21.20,-1317.05,-122.65,29069.14,95.35
21.30,-1329.37,-123.22,29064.77,95.32
21.40,-1341.75,-123.79,29060.40,95.30
21.50,-1354.19,-124.36,29056.03,95.28
21.60,-1366.68,-124.93,29051.66,95.26
21.70,-1379.23,-125.50,29047.29,95.24
21.80,-1391.84,-126.07,29042.92,95.21
21.90,-1404.50,-126.64,29038.55,95.19
22.00,-1417.22,-127.21,29034.18,95.17
22.10,-1430.00,-127.78,29029.81,95.15
22.20,-1442.83,-128.34,29025.44,95.13
22.30,-1455.73,-128.91,29021.07,95.11
22.40,-1468.67,-129.48,29016.70,95.08
22.50,-1481.68,-130.05,29012.33,95.06
22.60,-1494.74,-130.62,29007.96,95.04
22.70,-1507.86,-131.19,29003.59,95.02
22.80,-1521.04,-131.76,28999.22,95.00
22.90,-1534.27,-132.33,28994.85,94.97
23.00,-1547.56,-132.89,28990.48,94.95
23.10,-1560.90,-133.46,28986.11,94.93
23.20,-1574.31,-134.03,28981.74,94.91
23.30,-1587.77,-134.60,28977.37,94.89
23.40,-1601.28,-135.17,28973.00,94.87
23.50,-1614.86,-135.74,28968.63,94.84
23.60,-1628.49,-136.30,28964.26,94.82
23.70,-1642.18,-136.87,28959.89,94.80
23.80,-1655.92,-137.44,28955.52,94.78
23.90,-1669.72,-138.01,28951.15,94.76
24.00,-1683.58,-138.58,28946.78,94.73
24.10,-1697.49,-139.15,28942.41,94.71
24.20,-1711.46,-139.71,28938.04,94.69
24.30,-1725.49,-140.28,28933.67,94.67
24.40,-1739.58,-140.85,28929.30,94.65
24.50,-1753.72,-141.42,28924.93,94.62
24.60,-1767.92,-141.98,28920.56,94.60
24.70,-1782.17,-142.55,28916.19,94.58
24.80,-1796.48,-143.12,28911.82,94.56
24.90,-1810.85,-143.69,28907.45,94.54
25.00,-1825.28,-144.25,28903.08,94.52
25.10,-1839.76,-144.82,28898.71,94.49
25.20,-1854.30,-145.39,28894.34,94.47
25.30,-1868.90,-145.96,28889.97,94.45
25.40,-1883.55,-146.52,28885.60,94.43
25.50,-1898.26,-147.09,28881.23,94.41
25.60,-1913.02,-147.66,28876.86,94.38
25.70,-1927.84,-148.22,28872.49,94.36
25.80,-1942.72,-148.79,28868.12,94.34
25.90,-1957.66,-149.36,28863.74,94.32
26.00,-1972.65,-149.93,28859.37,94.30
26.10,-1987.70,-150.49,28855.00,94.28
26.20,-2002.81,-151.06,28850.63,94.25
26.30,-2017.97,-151.63,28846.26,94.23
26.40,-2033.19,-152.19,28841.89,94.21
26.50,-2048.47,-152.76,28837.52,94.19
26.60,-2063.80,-153.33,28833.15,94.17
26.70,-2079.19,-153.89,28828.78,94.14
26.80,-2094.63,-154.46,28824.41,94.12
26.90,-2110.14,-155.02,28820.04,94.10
27.00,-2125.69,-155.59,28815.67,94.08
27.10,-2141.31,-156.16,28811.30,94.06
27.20,-2156.98,-156.72,28806.93,94.03
27.30,-2172.71,-157.29,28802.56,94.01
27.40,-2188.50,-157.86,28798.19,93.99
27.50,-2204.34,-158.42,28793.82,93.97
27.60,-2220.24,-158.99,28789.45,93.95
27.70,-2236.19,-159.55,28785.08,93.93
27.80,-2252.21,-160.12,28780.71,93.90
27.90,-2268.27,-160.68,28776.34,93.88
28.00,-2284.40,-161.25,28771.97,93.86
28.10,-2300.58,-161.82,28767.60,93.84
28.20,-2316.82,-162.38,28763.23,93.82
28.30,-2333.11,-162.95,28758.86,93.79
28.40,-2349.46,-163.51,28754.49,93.77
28.50,-2365.87,-164.08,28750.12,93.75
28.60,-2382.34,-164.64,28745.75,93.73
28.70,-2398.86,-165.21,28741.38,93.71
28.80,-2415.43,-165.77,28737.01,93.69
28.90,-2432.07,-166.34,28732.64,93.66
29.00,-2448.76,-166.90,28728.27,93.64
29.10,-2465.51,-167.47,28723.90,93.62
29.20,-2482.31,-168.03,28719.53,93.60
29.30,-2499.17,-168.60,28715.16,93.58
29.40,-2516.09,-169.16,28710.79,93.55
29.50,-2533.06,-169.73,28706.42,93.53
29.60,-2550.09,-170.29,28702.05,93.51
29.70,-2567.17,-170.86,28697.68,93.49
29.80,-2584.32,-171.42,28693.31,93.47
29.90,-2601.51,-171.99,28688.94,93.44
30.00,-2618.77,-172.55,28684.57,93.42
30.10,-2636.08,-173.12,28680.20,93.40
30.20,-2653.45,-173.68,28675.83,93.38
30.30,-2670.87,-174.25,28671.46,93.36
30.40,-2688.36,-174.81,28667.09,93.34
30.50,-2705.89,-175.37,28662.72,93.31
30.60,-2723.49,-175.94,28658.34,93.29
30.70,-2741.14,-176.50,28653.97,93.27
30.80,-2758.84,-177.07,28649.60,93.25
30.90,-2776.61,-177.63,28645.23,93.23
31.00,-2794.43,-178.19,28640.86,93.20
31.10,-2812.30,-178.76,28636.49,93.18
31.20,-2830.23,-179.32,28632.12,93.16
31.30,-2848.22,-179.89,28627.75,93.14
31.40,-2866.27,-180.45,28623.38,93.12
31.50,-2884.37,-181.01,28619.01,93.10
31.60,-2902.53,-181.58,28614.64,93.07
31.70,-2920.74,-182.14,28610.27,93.05
31.80,-2939.01,-182.70,28605.90,93.03
31.90,-2957.34,-183.27,28601.53,93.01
32.00,-2975.72,-183.83,28597.16,92.99
32.10,-2994.16,-184.39,28592.79,92.96
32.20,-3012.65,-184.96,28588.42,92.94
32.30,-3031.21,-185.52,28584.05,92.92
32.40,-3049.81,-186.08,28579.68,92.90
32.50,-3068.48,-186.65,28575.31,92.88
32.60,-3087.20,-187.21,28570.94,92.85
32.70,-3105.98,-187.77,28566.57,92.83
32.80,-3124.81,-188.33,28562.20,92.81
32.90,-3143.70,-188.90,28557.83,92.79
33.00,-3162.65,-189.46,28553.46,92.77
33.10,-3181.65,-190.02,28549.09,92.75
33.20,-3200.71,-190.59,28544.72,92.72
33.30,-3219.82,-191.15,28540.35,92.70
33.40,-3238.99,-191.71,28535.98,92.68
33.50,-3258.22,-192.27,28531.61,92.66
33.60,-3277.50,-192.84,28527.24,92.64
33.70,-3296.84,-193.40,28522.87,92.61
33.80,-3316.24,-193.96,28518.50,92.59
33.90,-3335.69,-194.52,28514.13,92.57
34.00,-3355.20,-195.08,28509.76,92.55
34.10,-3374.77,-195.65,28505.39,92.53
34.20,-3394.39,-196.21,28501.02,92.51
34.30,-3414.06,-196.77,28496.65,92.48
34.40,-3433.80,-197.33,28492.28,92.46
34.50,-3453.59,-197.89,28487.91,92.44
34.60,-3473.43,-198.46,28483.54,92.42
34.70,-3493.33,-199.02,28479.17,92.40
34.80,-3513.29,-199.58,28474.80,92.37
34.90,-3533.31,-200.14,28470.43,92.35
35.00,-3553.38,-200.70,28466.06,92.33
35.10,-3573.50,-201.26,28461.69,92.31
35.20,-3593.69,-201.83,28457.32,92.29
35.30,-3613.92,-202.39,28452.94,92.26
35.40,-3634.22,-202.95,28448.57,92.24
35.50,-3654.57,-203.51,28444.20,92.22
35.60,-3674.98,-204.07,28439.83,92.20
35.70,-3695.44,-204.63,28435.46,92.18
35.80,-3715.96,-205.19,28431.09,92.16
35.90,-3736.54,-205.76,28426.72,92.13
36.00,-3757.17,-206.32,28422.35,92.11
36.10,-3777.86,-206.88,28417.98,92.09
36.20,-3798.60,-207.44,28413.61,92.07
36.30,-3819.40,-208.00,28409.24,92.05
36.40,-3840.25,-208.56,28404.87,92.02
36.50,-3861.17,-209.12,28400.50,92.00
36.60,-3882.13,-209.68,28396.13,91.98
36.70,-3903.16,-210.24,28391.76,91.96
36.80,-3924.24,-210.80,28387.39,91.94
36.90,-3945.38,-211.36,28383.02,91.92
37.00,-3966.57,-211.92,28378.65,91.89
37.10,-3987.82,-212.48,28374.28,91.87
37.20,-4009.12,-213.04,28369.91,91.85
37.30,-4030.48,-213.60,28365.54,91.83
37.40,-4051.90,-214.16,28361.17,91.81
37.50,-4073.37,-214.72,28356.80,91.78
37.60,-4094.90,-215.28,28352.43,91.76
37.70,-4116.48,-215.84,28348.06,91.74
37.80,-4138.12,-216.40,28343.69,91.72
37.90,-4159.82,-216.96,28339.32,91.70
38.00,-4181.57,-217.52,28334.95,91.67
38.10,-4203.38,-218.08,28330.58,91.65
38.20,-4225.24,-218.64,28326.21,91.63
38.30,-4247.17,-219.20,28321.84,91.61
38.40,-4269.14,-219.76,28317.47,91.59
38.50,-4291.17,-220.32,28313.10,91.57
38.60,-4313.26,-220.88,28308.73,91.54
38.70,-4335.41,-221.44,28304.36,91.52
38.80,-4357.61,-222.00,28299.99,91.50
38.90,-4379.86,-222.56,28295.62,91.48
39.00,-4402.17,-223.12,28291.25,91.46
39.10,-4424.54,-223.68,28286.88,91.43
39.20,-4446.97,-224.24,28282.51,91.41
39.30,-4469.45,-224.80,28278.14,91.39
39.40,-4491.98,-225.36,28273.77,91.37
39.50,-4514.57,-225.91,28269.40,91.35
39.60,-4537.22,-226.47,28265.03,91.33
39.70,-4559.92,-227.03,28260.66,91.30
39.80,-4582.68,-227.59,28256.29,91.28
39.90,-4605.50,-228.15,28251.92,91.26
40.00,-4628.37,-228.71,28247.54,91.24
40.10,-4651.29,-229.27,28243.17,91.22
40.20,-4674.28,-229.83,28238.80,91.19
40.30,-4697.32,-230.38,28234.43,91.17
40.40,-4720.41,-230.94,28230.06,91.15
40.50,-4743.56,-231.50,28225.69,91.13
40.60,-4766.77,-232.06,28221.32,91.11
40.70,-4790.03,-232.62,28216.95,91.08
40.80,-4813.35,-233.18,28212.58,91.06
40.90,-4836.72,-233.73,28208.21,91.04
41.00,-4860.15,-234.29,28203.84,91.02
41.10,-4883.63,-234.85,28199.47,91.00
41.20,-4907.17,-235.41,28195.10,90.98
41.30,-4930.77,-235.97,28190.73,90.95
41.40,-4954.42,-236.52,28186.36,90.93
41.50,-4978.13,-237.08,28181.99,90.91
41.60,-5001.89,-237.64,28177.62,90.89
41.70,-5025.71,-238.20,28173.25,90.87
41.80,-5049.59,-238.75,28168.88,90.84
41.90,-5073.52,-239.31,28164.51,90.82
42.00,-5097.51,-239.87,28160.14,90.80
42.10,-5121.55,-240.43,28155.77,90.78
42.20,-5145.65,-240.98,28151.40,90.76
42.30,-5169.80,-241.54,28147.03,90.74
42.40,-5194.01,-242.10,28142.66,90.71
42.50,-5218.28,-242.66,28138.29,90.69
42.60,-5242.60,-243.21,28133.92,90.67
42.70,-5266.98,-243.77,28129.55,90.65
42.80,-5291.41,-244.33,28125.18,90.63
42.90,-5315.90,-244.88,28120.81,90.60
43.00,-5340.44,-245.44,28116.44,90.58
43.10,-5365.04,-246.00,28112.07,90.56
43.20,-5389.70,-246.56,28107.70,90.54
43.30,-5414.41,-247.11,28103.33,90.52
43.40,-5439.18,-247.67,28098.96,90.49
43.50,-5464.00,-248.23,28094.59,90.47
43.60,-5488.88,-248.78,28090.22,90.45
43.70,-5513.81,-249.34,28085.85,90.43
43.80,-5538.80,-249.89,28081.48,90.41
43.90,-5563.85,-250.45,28077.11,90.39
44.00,-5588.95,-251.01,28072.74,90.36
44.10,-5614.10,-251.56,28068.37,90.34
44.20,-5639.31,-252.12,28064.00,90.32
44.30,-5664.58,-252.68,28059.63,90.30
44.40,-5689.90,-253.23,28055.26,90.28
44.50,-5715.28,-253.79,28050.89,90.25
44.60,-5740.72,-254.34,28046.52,90.23
44.70,-5766.21,-254.90,28042.14,90.21
44.80,-5791.75,-255.46,28037.77,90.19
44.90,-5817.35,-256.01,28033.40,90.17
45.00,-5843.01,-256.57,28029.03,90.15
45.10,-5868.72,-257.12,28024.66,90.12
45.20,-5894.49,-257.68,28020.29,90.10
45.30,-5920.32,-258.23,28015.92,90.08
45.40,-5946.19,-258.79,28011.55,90.06
45.50,-5972.13,-259.34,28007.18,90.04
45.60,-5998.12,-259.90,28002.81,90.01
45.70,-6024.16,-260.46,27998.44,89.99
45.80,-6050.27,-261.01,27994.07,89.97
45.90,-6076.42,-261.57,27989.70,89.95
46.00,-6102.63,-262.12,27985.33,89.93
46.10,-6128.90,-262.68,27980.96,89.90
46.20,-6155.22,-263.23,27976.59,89.88
46.30,-6181.60,-263.79,27972.22,89.86
46.40,-6208.04,-264.34,27967.85,89.84
46.50,-6234.53,-264.90,27963.48,89.82
46.60,-6261.07,-265.45,27959.11,89.80
46.70,-6287.67,-266.01,27954.74,89.77
46.80,-6314.33,-266.56,27950.37,89.75
46.90,-6341.04,-267.11,27946.00,89.73
47.00,-6367.81,-267.67,27941.63,89.71
47.10,-6394.63,-268.22,27937.26,89.69
47.20,-6421.51,-268.78,27932.89,89.66
47.30,-6448.44,-269.33,27928.52,89.64
47.40,-6475.43,-269.89,27924.15,89.62
47.50,-6502.47,-270.44,27919.78,89.60
47.60,-6529.57,-271.00,27915.41,89.58
47.70,-6556.73,-271.55,27911.04,89.56
47.80,-6583.94,-272.10,27906.67,89.53
47.90,-6611.20,-272.66,27902.30,89.51
48.00,-6638.53,-273.21,27897.93,89.49
48.10,-6665.90,-273.77,27893.56,89.47
48.20,-6693.33,-274.32,27889.19,89.45
48.30,-6720.82,-274.87,27884.82,89.42
48.40,-6748.36,-275.43,27880.45,89.40
48.50,-6775.96,-275.98,27876.08,89.38
48.60,-6803.62,-276.53,27871.71,89.36
48.70,-6831.32,-277.09,27867.34,89.34
48.80,-6859.09,-277.64,27862.97,89.31
48.90,-6886.91,-278.19,27858.60,89.29
49.00,-6914.78,-278.75,27854.23,89.27
49.10,-6942.71,-279.30,27849.86,89.25
49.20,-6970.70,-279.85,27845.49,89.23
49.30,-6998.74,-280.41,27841.12,89.21
49.40,-7026.84,-280.96,27836.74,89.18
49.50,-7054.99,-281.51,27832.37,89.16
49.60,-7083.19,-282.07,27828.00,89.14
49.70,-7111.46,-282.62,27823.63,89.12
49.80,-7139.77,-283.17,27819.26,89.10
49.90,-7168.15,-283.73,27814.89,89.07
50.00,-7196.57,-284.28,27810.52,89.05
50.10,-7225.06,-284.83,27806.15,89.03
50.20,-7253.60,-285.38,27801.78,89.01
50.30,-7282.19,-285.94,27797.41,88.99
50.40,-7310.84,-286.49,27793.04,88.97
50.50,-7339.54,-287.04,27788.67,88.94
50.60,-7368.30,-287.59,27784.30,88.92
50.70,-7397.12,-288.15,27779.93,88.90
50.80,-7425.99,-288.70,27775.56,88.88
50.90,-7454.91,-289.25,27771.19,88.86
51.00,-7483.89,-289.80,27766.82,88.83
51.10,-7512.93,-290.36,27762.45,88.81
51.20,-7542.02,-290.91,27758.08,88.79
51.30,-7571.16,-291.46,27753.71,88.77
51.40,-7600.36,-292.01,27749.34,88.75
51.50,-7629.62,-292.56,27744.97,88.72
51.60,-7658.93,-293.12,27740.60,88.70
51.70,-7688.30,-293.67,27736.23,88.68
51.80,-7717.72,-294.22,27731.86,88.66
51.90,-7747.20,-294.77,27727.49,88.64
52.00,-7776.73,-295.32,27723.12,88.62
52.10,-7806.32,-295.87,27718.75,88.59
52.20,-7835.96,-296.43,27714.38,88.57
52.30,-7865.66,-296.98,27710.01,88.55
52.40,-7895.41,-297.53,27705.64,88.53
52.50,-7925.22,-298.08,27701.27,88.51
52.60,-7955.08,-298.63,27696.90,88.48
52.70,-7985.00,-299.18,27692.53,88.46
52.80,-8014.97,-299.73,27688.16,88.44
52.90,-8045.00,-300.28,27683.79,88.42
53.00,-8075.09,-300.83,27679.42,88.40
53.10,-8105.22,-301.39,27675.05,88.38
53.20,-8135.42,-301.94,27670.68,88.35
53.30,-8165.67,-302.49,27666.31,88.33
53.40,-8195.97,-303.04,27661.94,88.31
53.50,-8226.33,-303.59,27657.57,88.29
53.60,-8256.74,-304.14,27653.20,88.27
53.70,-8287.21,-304.69,27648.83,88.24
53.80,-8317.74,-305.24,27644.46,88.22
